-4.759 
n/a 
n/a 
n/a 
n/a 
-4.759 
n/a 
n/a 
n/a 
n/a 
-4.759 
n/a 
n/a 
n/a 
n/a 
-4.759 
n/a 
n/a 
n/a 
n/a 
-4.152 -4.763 -4.1985 -4.3395 -3.1335 
-7.041 -9.318001 -7.377 -6.722001 
-12.2664 -12.9727 -9.245501 
-15.9211 -14.8412 
-17.7896 
-3.5455 -4.152 -3.852 -4.1985 -4.297 
-6.305 -6.307501 -8.9545 -7.7405 
-8.135 -10.5975 -12.7511 
-12.5032 -14.3941 
-16.2998 
-1.934 -4.2875 -3.852 -3.485 -9.198001 
-5.8805 -7.122001 -7.410501 -13.8152 
-8.7845 -10.9977 -18.6929 
-12.9232 -22.2801 
-24.2056 
-20.3025 -4.1985 -4.297 -1.934 -4.152 
-25.9708 -7.7405 -6.330501 -5.5915 
-29.7944 -9.355 -9.495001 
-31.4089 -12.5473 
-34.6012 
