-4.759 
n/a 
n/a 
n/a 
n/a 
-4.759 
n/a 
n/a 
n/a 
n/a 
-4.759 
n/a 
n/a 
n/a 
n/a 
-4.759 
n/a 
n/a 
n/a 
n/a 
-1.934 -1.4985 -4.3685 -1.7565 -12.16972 -3.8655 -2.489 -4.685 -1.7565 -1.4985 -4.3685 -1.756 -2.4265 -2.7415 -1.4985 -3.4155 -4.401 -1.7565 -4.3105 -4.257 
-2.6125 -5.106 -5.0855 -14.87542 -16.03522 -7.757 -6.759 -6.2825 -2.4195 -5.106 -6.1565 -3.949 -3.681 -4.063 -4.4155 -8.1195 -5.5075 -5.761001 -7.0925 
-6.0625 -5.569 -19.27942 -18.74092 -19.92672 -12.429 -6.9 -6.6945 -6.153 -6.8895 -7.9025 -4.9795 -4.946 -6.8325 -9.002501 -9.269501 -8.935 -8.8465 
-6.5045 -19.97472 -23.14492 -22.63242 -24.59872 -12.57 -7.4145 -10.494 -7.598001 -8.7085 -8.753 -6.346 -7.78 -11.6403 -9.797001 -12.8336 -12.3721 
-20.96942 -23.84022 -27.03642 -27.30442 -24.73972 -13.0845 -11.4342 -11.939 -9.4245 -9.518001 -9.938001 -9.407001 -12.7106 -12.4348 -13.3891 -16.2707 
-1.934 -10.8475 -3.8275 -3.8655 -4.0875 -3.355 -4.9475 
-13.7879 -14.675 -7.7635 -7.940001 -5.7705 -9.3795 
-17.6154 -18.611 -12.5004 -9.109501 -12.6894 
-21.5514 -23.3479 -13.6699 -16.0406 
-26.2883 -24.5174 -20.601 
-1.934 -10.8475 -3.8275 0 -1.4985 -4.401 -1.7565 -5.6025 -2.7415 -1.4985 -3.0835 -4.1735 -3.8275 -4.3325 -1.934 -3.8655 0 
-13.7879 -14.675 -3.8275 -1.4985 -5.646501 -5.5075 -6.755001 -8.384501 -4.063 -3.535 -7.338 -8.3785 -8.3905 -5.385 -4.9135 -3.8655 
-17.6154 -14.675 -5.4605 -5.646501 -5.8205 -9.4245 -9.566501 -9.687501 -5.12 -7.642001 -12.6016 -13.5379 -9.7775 -8.9095 -4.9135 
-17.6154 -16.308 -9.935 -5.8205 -9.846001 -12.9906 -10.8695 -10.7445 -10.0885 -13.664 -17.761 -14.9249 -13.2974 -8.9095 
-19.2484 -20.7825 -10.0135 -9.846001 -14.0783 -14.2936 -11.9265 -15.713 -16.2663 -18.8234 -19.148 -18.4448 -13.2974 
-12.16972 -3.8275 -2.7415 -1.4985 -4.4665 -3.8275 -4.502 -1.7565 -4.3105 -4.257 0 
-15.99722 -5.9615 -4.063 -4.729 -8.201 -9.090501 -5.475 -5.761001 -7.0925 -4.257 
-18.13122 -7.202 -6.414001 -8.349001 -14.0278 -9.973001 -9.056001 -8.8465 -7.0925 
-19.37172 -9.4005 -9.7685 -14.3132 -14.9103 -13.577 -12.3859 -8.8465 
-21.57022 -10.635 -15.9001 -15.1957 -18.5143 -16.9069 -12.3859 
