-4.759 
n/a 
n/a 
n/a 
n/a 
-4.759 
n/a 
n/a 
n/a 
n/a 
-4.759 
n/a 
n/a 
n/a 
n/a 
-4.759 
n/a 
n/a 
n/a 
n/a 
-2.8965 -2.229 -3.998 -2.7455 -7.5605 
-5.469 -6.3935 -5.4695 -10.841 
-8.990001 -8.038501 -14.2976 
-10.533 -16.9596 
-19.4541 
-4.3925 -1.7565 -3.135 -3.1385 -2.7455 -7.5605 
-5.420001 -4.6765 -4.8745 -5.806 -10.841 
-8.0345 -6.906 -8.0065 -14.5179 
-9.312 -9.4595 -16.8944 
-12.1179 -18.4278 
-4.3925 -1.7565 -3.135 -3.1385 -2.7455 -7.5605 
-5.420001 -4.6765 -4.8745 -5.806 -10.841 
-8.0345 -6.906 -8.0065 -14.5179 
-9.312 -9.4595 -16.8944 
-12.1179 -18.4278 
-1.4985 -3.495 -2.7455 -8.445001 
-5.1045 -6.1785 -12.1491 
-8.511001 -16.1393 
-18.5032 
n/a 
